Laser beam intensity values from a Coherent Raman scattering experiment collected as part of my undergraduate thesis at UBC under Dr. Valery Milner
0
-1
-1
0
0
0
0
0
0
0
1
1
0
1
2
1
1
2
4
8
16
19
15
7
5
6
7
9
9
6
4
5
6
7
8
9
8
14
29
48
69
76
50
20
9
10
19
41
58
45
48
111
258
461
599
506
226
63
33
58
102
135
110
48
12
6
8
10
10
8
4
2
3
5
5
5
5
1
2
2
4
5
5
3
3
1
2
3
4
4
2
1
0
1
0
4
3
3
1
2
1
1
2
2
2
1
1
1
2
1
3
2
2
2
2
0
1
4
3
2
2
2
3
4
3
5
4
3
3
3
4
4
5
6
5
6
3
4
5
4
5
5
8
4
5
5
6
6
5
2
7
6
6
4
4
8
9
8
11
8
10
6
11
8
5
10
9
13
13
12
11
7
10
8
7
10
2
3
6
5
5
0
1
3
3
9
8
4
5
3
1
4
1
0
4
8
3
3
5
6
6
5
11
7
6
10
15
15
12
9
7
7
12
18
23
24
20
9
9
10
13
21
33
31
20
12
8
12
21
37
51
44
24
11
8
17
30
55
70
55
28
13
13
27
57
102
120
84
38
15
16
33
68
116
130
81
33
17
16
31
68
112
114
65
29
17
18
34
67
99
97
58
29
24
31
49
66
84
77
70
79
80
88
102
128
152
156
159
146
150
205
301
430
522
588
736
1004
1122
886
1092
2892
2014
0
0
0
0
0
0
0
0
0
0
0
0
0
0
1835
1855
1027
431
231
173
155
117
89
89
84
78
65
52
45
43
37
50
86
161
272
328
222
102
52
65
155
429
790
916
591
230
104
150
429
1149
2086
2332
1412
497
178
218
627
1664
3002
3278
1889
625
200
229
638
1783
3387
3873
2271
755
223
227
617
1730
3309
3781
2230
737
189
146
359
1010
1955
2245
1256
397
111
101
236
669
1379
1655
970
323
86
69
148
441
907
1082
627
206
56
46
106
295
580
690
397
133
41
32
55
132
275
347
217
82
32
25
26
51
93
111
73
31
22
21
33
69
125
140
86
35
26
17
17
35
63
75
44
22
12
12
12
16
31
39
23
17
19
17
17
27
47
56
31
20
13
13
19
32
50
59
32
11
10
9
11
17
25
24
14
12
7
10
15
32
59
53
27
11
9
11
21
40
67
53
24
11
10
9
15
32
43
31
17
9
9
10
20
42
57
36
15
9
8
10
23
49
54
31
13
7
8
15
38
70
72
36
15
8
11
27
72
123
99
43
16
11
13
38
96
140
93
37
14
12
23
69
157
184
97
36
17
19
53
151
278
242
113
43
23
34
89
209
296
201
91
52
57
102
254
482
518
298
170
172
383
1521
4107
6413
4630
1938
727
810
3692
1567
3599
4130
2152
6271
1329
616
843
2103
3455
2525
988
312
241
717
2460
5119
5344
2717
819
212
173
370
771
986
605
227
85
80
198
564
1023
881
384
112
47
72
228
522
649
370
126
35
22
20
25
27
20
15
10
10
9
8
9
8
7
7
7
7
7
9
9
7
6
5
6
7
10
10
8
4
4
5
4
5
6
5
3
4
4
5
5
7
5
4
3
4
4
8
9
7
5
3
4
5
9
10
7
5
4
4
6
10
11
8
5
5
6
7
10
10
7
4
5
6
8
11
10
8
5
4
6
7
8
7
5
4
5
5
6
7
6
5
5
5
6
6
6
5
3
4
4
5
5
6
4
4
5
5
4
4
4
5
4
4
5
4
4
4
4
5
4
3
3
4
3
3
3
3
3
3
3
3
3
3
2
2
3
2
1
3
2
2
2
1
2
2
2
1
1
1
2
1
1
0
1
1
1
1
2
2
1
1
0
0
0
1
0
0
0
-0
1
0
0
1
0
0
1
1
0
0
0
0
0
1
0